Soil code          1
Hapke_b         0.84
Hapke_c         0.68
Hapke_B0        0.30
Hapke_h         0.23
SM%              5.0
Cab_green       70.0
Cw_green       0.008
Cdm_green      0.003
Cs_green        0.05
N_green        1.500
Cab_brown        5.0
Cw_brown       0.001
Cdm_brown      0.005
Cs_brown        1.00
N_brown        2.000
LAI             1.00
LIDF a         -0.35
LIDF b         -0.15
hot             0.05
fB              0.00
D               0.80
Cv%             100.
zeta            0.50
sza             30.0
vza              0.0
azi              0.0

  WL           SOIL           LEAF green    LEAF brown          CANOPY
 (nm)   rso  rdo  rsd  rdd    refl  tran    refl  tran    rso  rdo  rsd  rdd

 400.  21.3 21.3 21.3 21.3     5.1   0.2     8.5   2.0    8.7  6.0  5.7  4.5
 410.  21.8 21.8 21.8 21.8     5.1   0.2     9.2   2.5    8.9  6.1  5.8  4.6
 420.  22.6 22.6 22.6 22.6     5.0   0.2    10.6   3.5    9.2  6.3  6.0  4.7
 430.  23.6 23.6 23.6 23.6     5.0   0.2    11.8   4.3    9.5  6.5  6.2  4.8
 440.  25.1 25.1 25.1 25.1     5.0   0.3    12.7   4.9   10.1  6.9  6.5  5.0
 450.  26.4 26.4 26.4 26.4     5.1   0.6    13.7   5.7   10.6  7.2  6.9  5.3
 460.  27.3 27.3 27.3 27.3     5.1   0.7    14.2   6.1   10.9  7.5  7.1  5.4
 470.  27.9 27.9 27.9 27.9     5.1   0.8    14.5   6.3   11.2  7.6  7.2  5.6
 480.  28.8 28.8 28.8 28.8     5.1   0.9    14.9   6.6   11.5  7.8  7.4  5.7
 490.  30.1 30.1 30.1 30.1     5.2   1.1    15.4   7.0   12.0  8.2  7.8  6.0
 500.  31.7 31.7 31.7 31.7     5.5   1.8    16.2   7.6   12.7  8.8  8.3  6.5
 510.  33.3 33.3 33.3 33.3     6.8   3.8    17.4   8.5   13.8  9.7  9.3  7.6
 520.  34.8 34.8 34.8 34.8     9.3   7.2    18.4   9.3   15.4 11.3 11.0  9.5
 530.  36.2 36.2 36.2 36.2    11.1   9.4    19.1   9.9   16.7 12.5 12.2 11.0
 540.  36.9 36.9 36.9 36.9    11.8  10.4    19.8  10.5   17.3 13.1 12.8 11.7
 550.  37.9 37.9 37.9 37.9    12.4  11.1    20.3  11.1   18.0 13.7 13.4 12.3
 560.  39.4 39.4 39.4 39.4    11.8  10.6    20.7  11.5   18.4 13.8 13.5 12.2
 570.  40.8 40.8 40.8 40.8    10.3   9.0    21.1  11.9   18.3 13.5 13.1 11.4
 580.  42.1 42.1 42.1 42.1     9.1   7.6    21.5  12.4   18.3 13.2 12.8 10.8
 590.  43.4 43.4 43.4 43.4     8.3   6.7    22.1  12.9   18.5 13.2 12.7 10.5
 600.  44.5 44.5 44.5 44.5     7.8   6.1    22.6  13.5   18.6 13.2 12.6 10.3
 610.  45.5 45.5 45.5 45.5     7.0   5.1    23.0  13.9   18.7 13.0 12.4  9.9
 620.  46.3 46.3 46.3 46.3     6.5   4.4    23.5  14.3   18.8 13.0 12.3  9.7
 630.  47.2 47.2 47.2 47.2     6.3   4.2    24.0  14.8   19.0 13.1 12.4  9.6
 640.  48.0 48.0 48.0 48.0     5.8   3.4    24.2  15.0   19.1 13.0 12.3  9.4
 650.  48.8 48.8 48.8 48.8     5.2   2.4    23.9  14.9   19.0 12.8 12.1  9.0
 660.  49.7 49.7 49.7 49.7     4.7   1.3    23.2  14.2   19.1 12.7 12.0  8.7
 670.  50.5 50.5 50.5 50.5     4.4   0.8    22.6  13.8   19.2 12.8 12.0  8.6
 680.  51.4 51.4 51.4 51.4     4.5   0.9    23.5  14.6   19.6 13.0 12.2  8.7
 690.  52.3 52.3 52.3 52.3     5.2   2.5    26.9  17.4   20.3 13.7 12.9  9.6
 700.  53.0 53.0 53.0 53.0     9.6   8.8    31.7  21.5   23.0 16.5 15.9 13.2
 710.  53.8 53.8 53.8 53.8    18.4  19.1    35.2  24.5   28.3 22.3 22.0 20.7
 720.  54.7 54.7 54.7 54.7    27.6  29.1    37.4  26.5   35.1 29.9 29.9 30.2
 730.  55.4 55.4 55.4 55.4    35.8  37.7    39.2  28.2   42.6 38.3 38.7 40.8
 740.  56.1 56.1 56.1 56.1    41.5  43.6    40.6  29.5   49.2 45.6 46.4 50.0
 750.  56.9 56.9 56.9 56.9    44.8  47.1    41.8  30.7   54.0 50.9 51.9 56.4
 760.  57.6 57.6 57.6 57.6    46.2  48.6    42.8  31.7   56.5 53.6 54.7 59.6
 770.  58.2 58.2 58.2 58.2    46.7  49.2    43.8  32.6   57.7 54.9 56.0 60.9
 780.  58.8 58.8 58.8 58.8    46.7  49.3    44.8  33.5   58.4 55.5 56.5 61.5
 790.  59.3 59.3 59.3 59.3    46.8  49.3    45.6  34.3   58.9 56.0 57.0 61.9
 800.  59.8 59.8 59.8 59.8    46.9  49.4    46.5  35.0   59.5 56.5 57.5 62.4
 810.  60.2 60.2 60.2 60.2    47.0  49.4    47.2  35.7   60.0 56.9 58.0 62.8
 820.  60.7 60.7 60.7 60.7    47.0  49.5    47.9  36.3   60.5 57.4 58.5 63.3
 830.  61.0 61.0 61.0 61.0    47.1  49.6    48.6  36.9   60.9 57.8 58.8 63.6
 840.  61.3 61.3 61.3 61.3    47.1  49.6    49.2  37.4   61.2 58.0 59.1 63.8
 850.  61.6 61.6 61.6 61.6    47.2  49.6    49.7  37.9   61.6 58.3 59.4 64.1
 860.  62.0 62.0 62.0 62.0    47.2  49.7    50.2  38.3   62.0 58.7 59.8 64.5
 870.  62.3 62.3 62.3 62.3    47.2  49.7    50.6  38.7   62.3 59.0 60.1 64.8
 880.  62.5 62.5 62.5 62.5    47.3  49.8    51.0  39.1   62.7 59.3 60.3 65.0
 890.  62.9 62.9 62.9 62.9    47.3  49.8    51.4  39.5   63.0 59.6 60.7 65.3
 900.  63.3 63.3 63.3 63.3    47.3  49.9    51.7  39.8   63.5 60.1 61.1 65.7
 910.  63.7 63.7 63.7 63.7    47.3  49.9    51.9  40.0   63.9 60.4 61.5 66.0
 920.  64.1 64.1 64.1 64.1    47.3  49.9    52.2  40.2   64.3 60.7 61.7 66.3
 930.  64.5 64.5 64.5 64.5    47.2  49.9    52.4  40.5   64.6 61.0 61.9 66.4
 940.  64.8 64.8 64.8 64.8    47.1  49.8    52.5  40.7   64.7 61.0 62.0 66.3
 950.  65.1 65.1 65.1 65.1    46.9  49.6    52.7  40.8   64.7 60.9 61.9 66.1
 960.  65.6 65.6 65.6 65.6    46.6  49.3    52.8  40.9   64.7 60.8 61.7 65.9
 970.  65.9 65.9 65.9 65.9    46.5  49.2    52.9  41.1   64.8 60.8 61.7 65.8
 980.  66.1 66.1 66.1 66.1    46.5  49.3    53.1  41.3   65.1 61.0 61.9 66.0
 990.  66.5 66.5 66.5 66.5    46.5  49.4    53.2  41.5   65.5 61.4 62.3 66.3
1000.  66.9 66.9 66.9 66.9    46.6  49.5    53.4  41.7   66.0 61.9 62.8 66.8
1010.  67.2 67.2 67.2 67.2    46.6  49.6    53.5  41.8   66.6 62.5 63.3 67.3
1020.  67.5 67.5 67.5 67.5    46.7  49.8    53.6  42.0   67.1 62.9 63.8 67.8
1030.  67.9 67.9 67.9 67.9    46.8  49.9    53.7  42.1   67.6 63.4 64.3 68.3
1040.  68.1 68.1 68.1 68.1    46.8  50.0    53.7  42.2   67.9 63.7 64.5 68.5
1050.  68.3 68.3 68.3 68.3    46.8  50.1    53.7  42.3   68.2 64.0 64.8 68.8
1060.  68.8 68.8 68.8 68.8    46.8  50.2    53.6  42.3   68.7 64.4 65.3 69.2
1070.  69.3 69.3 69.3 69.3    46.6  50.1    53.4  42.2   69.1 64.6 65.5 69.3
1080.  69.6 69.6 69.6 69.6    46.5  50.0    53.2  42.1   69.2 64.7 65.5 69.3
1090.  69.9 69.9 69.9 69.9    46.3  50.0    53.0  42.0   69.2 64.7 65.5 69.1
1100.  70.1 70.1 70.1 70.1    46.2  49.9    52.9  41.9   69.3 64.7 65.5 69.1
1110.  70.4 70.4 70.4 70.4    46.1  49.9    52.8  42.0   69.4 64.8 65.5 69.1
1120.  70.6 70.6 70.6 70.6    45.9  49.8    52.7  42.0   69.4 64.7 65.5 69.0
1130.  70.9 70.9 70.9 70.9    45.6  49.6    52.6  42.0   69.3 64.5 65.2 68.6
1140.  71.2 71.2 71.2 71.2    45.1  49.2    52.5  41.9   68.7 63.7 64.4 67.6
1150.  71.3 71.3 71.3 71.3    44.5  48.6    52.3  41.8   67.9 62.8 63.5 66.5
1160.  71.6 71.6 71.6 71.6    44.2  48.4    52.3  41.9   67.7 62.5 63.2 66.0
1170.  72.0 72.0 72.0 72.0    44.0  48.3    52.1  41.8   67.8 62.5 63.1 65.9
1180.  72.3 72.3 72.3 72.3    43.8  48.2    51.8  41.6   67.8 62.4 63.0 65.7
1190.  72.5 72.5 72.5 72.5    43.7  48.2    51.7  41.6   68.0 62.5 63.1 65.8
1200.  72.7 72.7 72.7 72.7    43.7  48.2    51.7  41.7   68.1 62.7 63.3 65.9
1210.  72.8 72.8 72.8 72.8    43.7  48.3    51.7  41.8   68.3 62.8 63.4 66.1
1220.  72.9 72.9 72.9 72.9    43.8  48.5    51.8  41.9   68.6 63.2 63.7 66.4
1230.  73.2 73.2 73.2 73.2    43.9  48.6    51.9  42.1   69.1 63.7 64.2 66.9
1240.  73.5 73.5 73.5 73.5    43.9  48.8    51.9  42.2   69.6 64.1 64.7 67.3
1250.  73.8 73.8 73.8 73.8    44.0  48.9    52.0  42.3   70.0 64.5 65.1 67.7
1260.  74.0 74.0 74.0 74.0    44.0  49.0    51.9  42.4   70.3 64.7 65.3 68.0
1270.  74.1 74.1 74.1 74.1    44.0  49.1    51.9  42.4   70.5 64.9 65.5 68.1
1280.  74.3 74.3 74.3 74.3    43.9  49.1    52.0  42.6   70.6 65.0 65.6 68.2
1290.  74.4 74.4 74.4 74.4    43.8  49.0    51.9  42.6   70.5 64.9 65.4 68.0
1300.  74.5 74.5 74.5 74.5    43.5  48.8    51.9  42.6   70.2 64.5 65.1 67.6
1310.  74.7 74.7 74.7 74.7    43.2  48.6    51.8  42.7   69.9 64.1 64.6 67.0
1320.  74.8 74.8 74.8 74.8    42.8  48.3    51.7  42.7   69.4 63.5 64.0 66.3
1330.  74.9 74.9 74.9 74.9    42.3  47.8    51.6  42.7   68.5 62.6 63.0 65.1
1340.  75.0 75.0 75.0 75.0    41.2  46.8    51.4  42.5   66.9 60.7 61.1 62.9
1350.  75.2 75.2 75.2 75.2    39.9  45.4    51.1  42.3   64.9 58.4 58.7 60.1
1360.  75.3 75.3 75.3 75.3    38.7  44.2    50.7  42.0   63.1 56.4 56.7 57.7
1370.  75.2 75.2 75.2 75.2    37.7  43.2    50.4  41.8   61.6 54.8 54.9 55.7
1380.  75.1 75.1 75.1 75.1    36.3  41.9    50.1  41.6   59.5 52.5 52.6 53.1
1390.  74.8 74.8 74.8 74.8    33.2  38.7    49.4  41.0   55.1 47.7 47.7 47.5
1400.  74.5 74.5 74.5 74.5    28.9  34.0    48.2  40.0   49.6 41.8 41.5 40.5
1410.  74.3 74.3 74.3 74.3    25.3  30.0    46.9  38.9   45.7 37.5 37.1 35.3
1420.  74.4 74.4 74.4 74.4    23.0  27.6    45.7  37.8   43.5 35.1 34.6 32.5
1430.  74.8 74.8 74.8 74.8    21.9  26.4    44.7  37.0   42.7 34.1 33.6 31.2
1440.  75.1 75.1 75.1 75.1    21.6  26.0    44.0  36.5   42.5 33.9 33.4 30.9
1450.  75.3 75.3 75.3 75.3    21.6  26.1    43.7  36.3   42.7 34.1 33.5 31.0
1460.  75.6 75.6 75.6 75.6    21.8  26.5    43.6  36.3   43.1 34.5 33.9 31.4
1470.  75.9 75.9 75.9 75.9    22.3  27.2    43.7  36.5   43.8 35.2 34.6 32.2
1480.  76.2 76.2 76.2 76.2    23.2  28.3    43.9  36.8   44.9 36.3 35.8 33.5
1490.  76.3 76.3 76.3 76.3    24.4  29.8    44.2  37.2   46.3 37.8 37.3 35.2
1500.  76.5 76.5 76.5 76.5    25.8  31.5    44.4  37.6   47.9 39.5 39.1 37.3
1510.  76.6 76.6 76.6 76.6    27.1  33.2    44.8  38.0   49.6 41.3 40.9 39.4
1520.  76.7 76.7 76.7 76.7    28.4  34.7    45.1  38.4   51.1 43.0 42.6 41.4
1530.  76.9 76.9 76.9 76.9    29.3  35.9    45.4  38.8   52.5 44.5 44.2 43.1
1540.  77.2 77.2 77.2 77.2    30.2  36.9    45.6  39.2   53.8 45.8 45.6 44.6
1550.  77.3 77.3 77.3 77.3    30.9  37.9    45.7  39.4   54.9 47.0 46.8 46.0
1560.  77.3 77.3 77.3 77.3    31.5  38.8    45.8  39.6   55.9 48.0 47.9 47.2
1570.  77.4 77.4 77.4 77.4    32.1  39.5    45.9  39.9   56.8 49.1 48.9 48.4
1580.  77.6 77.6 77.6 77.6    32.6  40.3    45.9  40.1   57.8 50.0 49.9 49.5
1590.  77.6 77.6 77.6 77.6    33.1  40.9    46.0  40.3   58.6 50.9 50.8 50.6
1600.  77.6 77.6 77.6 77.6    33.6  41.6    46.1  40.5   59.3 51.7 51.7 51.6
1610.  77.7 77.7 77.7 77.7    34.0  42.2    46.3  40.8   60.1 52.6 52.6 52.5
1620.  77.8 77.8 77.8 77.8    34.4  42.7    46.4  41.1   60.8 53.4 53.3 53.4
1630.  77.9 77.9 77.9 77.9    34.6  43.2    46.5  41.3   61.4 54.0 54.0 54.1
1640.  78.0 78.0 78.0 78.0    34.8  43.5    46.5  41.5   61.9 54.5 54.5 54.7
1650.  78.0 78.0 78.0 78.0    35.0  43.8    46.5  41.6   62.2 54.8 54.8 55.1
1660.  78.1 78.1 78.1 78.1    35.0  44.0    46.4  41.6   62.4 55.0 55.1 55.3
1670.  78.2 78.2 78.2 78.2    34.9  44.1    46.1  41.5   62.6 55.2 55.2 55.4
1680.  78.4 78.4 78.4 78.4    34.8  44.1    45.7  41.2   62.6 55.1 55.1 55.3
1690.  78.5 78.5 78.5 78.5    34.5  43.9    45.2  40.9   62.3 54.8 54.8 55.0
1700.  78.5 78.5 78.5 78.5    34.2  43.6    44.7  40.5   61.9 54.3 54.3 54.4
1710.  78.5 78.5 78.5 78.5    33.8  43.4    44.3  40.3   61.4 53.8 53.8 53.8
1720.  78.5 78.5 78.5 78.5    33.5  43.0    44.0  40.1   60.9 53.3 53.2 53.1
1730.  78.6 78.6 78.6 78.6    33.1  42.7    43.8  40.0   60.4 52.7 52.7 52.5
1740.  78.6 78.6 78.6 78.6    32.7  42.4    43.8  40.1   60.0 52.3 52.2 51.9
1750.  78.7 78.7 78.7 78.7    32.3  42.0    43.9  40.2   59.5 51.7 51.6 51.3
1760.  78.7 78.7 78.7 78.7    31.9  41.6    43.8  40.3   59.0 51.1 51.0 50.5
1770.  78.7 78.7 78.7 78.7    31.5  41.3    43.9  40.5   58.5 50.6 50.4 49.9
1780.  78.8 78.8 78.8 78.8    31.2  41.0    44.0  40.7   58.1 50.2 50.0 49.4
1790.  78.9 78.9 78.9 78.9    30.9  40.8    44.1  40.8   57.9 49.9 49.8 49.1
1800.  79.0 79.0 79.0 79.0    30.8  40.8    44.2  41.0   57.9 49.9 49.7 49.1
1810.  79.0 79.0 79.0 79.0    30.9  40.9    44.2  41.1   58.0 50.0 49.8 49.2
1820.  78.9 78.9 78.9 78.9    30.8  40.9    44.3  41.3   57.8 49.8 49.7 49.0
1830.  78.9 78.9 78.9 78.9    30.5  40.6    44.3  41.4   57.5 49.5 49.3 48.6
1840.  79.1 79.1 79.1 79.1    30.7  40.9    44.4  41.6   57.9 49.9 49.7 49.0
1850.  79.1 79.1 79.1 79.1    30.1  40.2    44.4  41.6   57.1 49.0 48.8 48.0
1860.  79.0 79.0 79.0 79.0    26.5  36.1    43.8  41.1   52.3 43.8 43.4 41.9
1870.  78.6 78.6 78.6 78.6    21.8  30.4    42.7  40.0   46.5 37.6 37.0 34.5
1880.  78.0 78.0 78.0 78.0    18.0  25.5    41.5  38.9   42.2 33.0 32.3 29.2
1890.  77.0 77.0 77.0 77.0    15.4  22.3    40.3  37.7   39.3 30.1 29.3 25.9
1900.  76.1 76.1 76.1 76.1    13.9  20.2    38.8  36.3   37.5 28.3 27.5 23.9
1910.  75.6 75.6 75.6 75.6    13.0  19.0    37.3  34.9   36.4 27.3 26.4 22.8
1920.  75.6 75.6 75.6 75.6    12.4  18.2    36.2  33.8   36.0 26.8 25.9 22.2
1930.  75.7 75.7 75.7 75.7    12.1  17.9    35.5  33.2   35.8 26.5 25.7 21.9
1940.  75.7 75.7 75.7 75.7    12.1  17.9    35.4  33.1   35.8 26.6 25.7 21.9
1950.  76.0 76.0 76.0 76.0    12.3  18.1    35.4  33.3   36.0 26.8 25.9 22.1
1960.  76.4 76.4 76.4 76.4    12.5  18.5    35.7  33.5   36.4 27.1 26.3 22.5
1970.  76.7 76.7 76.7 76.7    12.8  19.0    35.9  33.9   36.9 27.6 26.7 22.9
1980.  77.0 77.0 77.0 77.0    13.2  19.6    36.2  34.2   37.4 28.0 27.2 23.5
1990.  77.2 77.2 77.2 77.2    13.7  20.4    36.5  34.5   37.9 28.6 27.7 24.1
2000.  77.3 77.3 77.3 77.3    14.3  21.2    36.7  34.9   38.5 29.2 28.4 24.8
2010.  77.5 77.5 77.5 77.5    14.8  22.1    36.7  35.0   39.2 29.9 29.1 25.6
2020.  77.6 77.6 77.6 77.6    15.4  22.9    36.5  34.8   39.8 30.5 29.7 26.3
2030.  77.7 77.7 77.7 77.7    15.9  23.6    36.1  34.5   40.3 31.1 30.3 27.0
2040.  77.8 77.8 77.8 77.8    16.3  24.2    35.4  33.9   40.8 31.6 30.8 27.6
2050.  77.9 77.9 77.9 77.9    16.7  24.9    34.6  33.2   41.3 32.1 31.3 28.1
2060.  78.1 78.1 78.1 78.1    17.1  25.5    33.9  32.6   41.8 32.6 31.9 28.8
2070.  78.2 78.2 78.2 78.2    17.6  26.2    33.6  32.3   42.4 33.2 32.5 29.4
2080.  78.3 78.3 78.3 78.3    18.1  27.0    33.5  32.3   43.0 33.9 33.2 30.2
2090.  78.4 78.4 78.4 78.4    18.6  27.7    33.3  32.3   43.6 34.5 33.8 30.9
2100.  78.5 78.5 78.5 78.5    19.0  28.4    33.2  32.2   44.1 35.0 34.4 31.5
2110.  78.5 78.5 78.5 78.5    19.3  28.9    33.0  32.2   44.5 35.5 34.8 32.1
2120.  78.5 78.5 78.5 78.5    19.7  29.5    33.0  32.3   44.9 35.9 35.3 32.6
2130.  78.5 78.5 78.5 78.5    20.0  30.0    33.0  32.4   45.3 36.3 35.7 33.1
2140.  78.4 78.4 78.4 78.4    20.2  30.4    32.9  32.4   45.6 36.7 36.1 33.5
2150.  78.3 78.3 78.3 78.3    20.5  30.8    32.8  32.4   45.8 36.9 36.3 33.9
2160.  77.9 77.9 77.9 77.9    20.7  31.2    32.8  32.6   45.9 37.1 36.5 34.1
2170.  77.3 77.3 77.3 77.3    20.9  31.6    32.9  32.7   45.8 37.1 36.6 34.3
2180.  76.6 76.6 76.6 76.6    21.1  32.0    33.0  33.0   45.7 37.1 36.6 34.5
2190.  76.0 76.0 76.0 76.0    21.2  32.3    33.3  33.4   45.6 37.1 36.6 34.6
2200.  75.5 75.5 75.5 75.5    21.4  32.6    33.6  33.8   45.5 37.1 36.6 34.7
2210.  75.5 75.5 75.5 75.5    21.4  32.7    33.8  34.2   45.5 37.2 36.7 34.8
2220.  75.7 75.7 75.7 75.7    21.4  32.8    34.0  34.5   45.7 37.3 36.8 34.9
2230.  75.9 75.9 75.9 75.9    21.2  32.7    33.9  34.5   45.7 37.3 36.8 34.8
2240.  76.0 76.0 76.0 76.0    20.8  32.3    33.4  34.1   45.4 36.9 36.4 34.3
2250.  76.0 76.0 76.0 76.0    20.2  31.6    32.4  33.1   44.8 36.2 35.7 33.5
2260.  76.1 76.1 76.1 76.1    19.6  30.8    31.2  32.0   44.1 35.5 35.0 32.6
2270.  76.2 76.2 76.2 76.2    18.9  30.0    30.1  30.9   43.5 34.8 34.2 31.8
2280.  76.1 76.1 76.1 76.1    18.3  29.4    29.2  30.1   42.9 34.2 33.6 31.0
2290.  76.1 76.1 76.1 76.1    17.8  28.7    28.5  29.4   42.4 33.6 33.0 30.4
2300.  76.0 76.0 76.0 76.0    17.3  28.1    27.9  28.9   41.8 33.1 32.4 29.7
2310.  75.8 75.8 75.8 75.8    16.9  27.6    27.5  28.6   41.4 32.6 31.9 29.2
2320.  75.6 75.6 75.6 75.6    16.6  27.3    27.5  28.7   40.9 32.2 31.5 28.7
2330.  75.3 75.3 75.3 75.3    16.3  26.9    27.6  28.8   40.5 31.8 31.1 28.3
2340.  75.0 75.0 75.0 75.0    15.9  26.4    27.5  28.8   40.0 31.2 30.6 27.7
2350.  74.9 74.9 74.9 74.9    15.5  25.8    27.3  28.7   39.5 30.8 30.1 27.2
2360.  74.8 74.8 74.8 74.8    15.1  25.4    27.4  28.8   39.2 30.4 29.7 26.7
2370.  74.8 74.8 74.8 74.8    14.8  25.0    27.5  29.1   38.9 30.1 29.4 26.3
2380.  74.8 74.8 74.8 74.8    14.4  24.5    27.6  29.3   38.5 29.7 29.0 25.9
2390.  74.6 74.6 74.6 74.6    14.1  24.0    27.6  29.3   38.1 29.3 28.6 25.4
2400.  74.2 74.2 74.2 74.2    13.7  23.5    27.6  29.4   37.6 28.8 28.1 24.9
